,time,temp,gas,humidity,pressure,altitude,PM 1.0,PM 2.5,PM10
0,1676679790.6122363,29.76125,157858,7.91873885212343,1006.628045295844,55.27874931089782,0,1,1
1,1676679792.1260102,29.7770703125,24467,7.880953237569669,1006.6235302148483,55.316540619633514,0,1,1
2,1676679793.3116999,29.828828125,34530,7.82502794064229,1006.6258347793987,55.29725135595322,0,1,1
3,1676679794.499182,29.8815625,45069,7.778684495589482,1006.6261594434541,55.29453391246061,0,1,1
4,1676679795.690133,29.92765625,54853,7.713100086917237,1006.6299076713069,55.2631612349281,0,1,1
5,1676679796.8809721,29.9680859375,64448,7.6903003750222805,1006.6351153883805,55.21957278556664,0,1,1
6,1676679798.072451,30.0065625,73677,7.634082723308966,1006.6353694504878,55.21744629735431,0,1,1
7,1676679799.263912,30.0415234375,82462,7.615912726437065,1006.6334655890952,55.23338154066781,0,1,1
8,1676679800.4547892,30.0727734375,89837,7.616710558270821,1006.6344198393323,55.225394501497924,0,1,1
9,1676679801.6405952,30.1044140625,95103,7.731982352947784,1006.6377809896555,55.19726184650313,0,1,1
10,1676679802.8263113,30.131953125,99323,8.239851487583618,1006.6362595771448,55.209995981390676,0,1,1
11,1676679804.0119567,30.15734375,103655,8.83228456739518,1006.6401356419715,55.17755357327269,0,1,1
12,1676679805.1977122,30.17765625,109365,9.316526541550655,1006.6411016123365,55.169468480477526,0,1,1
13,1676679806.3883564,30.193671875,113331,9.61317368947971,1006.6350936060358,55.21975510281573,0,1,1
14,1676679807.579499,30.20890625,118421,9.852173967172638,1006.6455924424721,55.13188068277037,0,1,1
15,1676679808.7710044,30.220625,123899,10.033026578277864,1006.6397205715879,55.18102768029339,0,1,1
16,1676679809.9623451,30.23,129410,9.930866661115127,1006.6424886118022,55.15785941960513,0,1,1
17,1676679811.153781,30.238203125,133399,9.697287264275205,1006.6451325973565,55.13572953401747,0,1,1
18,1676679812.345383,30.242109375,138320,9.439808845720776,1006.6461376001524,55.12731777691865,0,1,1
19,1676679813.536346,30.2477734375,137980,9.376896489931603,1006.646439248234,55.124793018714506,0,1,1
20,1676679814.7274034,30.2411328125,141213,9.804497997818729,1006.6445530930486,55.14057992110449,0,1,1
21,1676679815.919103,30.2165234375,145978,9.85242205741237,1006.6383983538658,55.19209454814637,0,1,1
22,1676679817.111314,30.1704296875,151754,9.55897104978126,1006.6382628372055,55.193228813574756,0,1,1
23,1676679818.3022602,30.1145703125,156831,9.193477590295204,1006.6382665461069,55.193197770317354,0,1,1
24,1676679819.4927776,30.0520703125,161329,8.838839557891824,1006.6399193372637,55.17936402680969,0,1,1
25,1676679820.683745,29.971796875,166256,8.470630472576616,1006.6393615425234,55.18403272674768,0,1,1
26,1676679821.8746552,29.8778515625,170283,8.127483801291042,1006.6325725402332,55.24085633214622,0,1,1
27,1676679823.065784,29.7841015625,173077,7.833402785562215,1006.6260628277128,55.29534258773352,0,1,1
28,1676679824.2569,29.70265625,175598,7.60251631865118,1006.6110740732978,55.4207994589545,0,1,1
29,1676679825.4478955,29.6219921875,180481,7.415034612967878,1006.6097595740991,55.4318019768058,0,1,1
30,1676679826.638918,29.537421875,181647,7.256344803633218,1006.6056243476554,55.466414399956236,0,1,1
31,1676679827.829989,29.4471875,183824,7.15466102788369,1006.6082388264688,55.44453083358215,0,1,1
32,1676679829.0211208,29.3446484375,185644,7.0859544180916645,1006.6032566762275,55.48623219247073,0,1,1
33,1676679830.2121475,29.2555859375,186249,7.055470578856279,1006.5881714000475,55.612499278530606,0,1,1
34,1676679831.4030867,29.1735546875,188578,7.0629878037710725,1006.5862520263612,55.62856496914512,0,1,1
35,1676679832.5943882,29.0973828125,188471,7.075367609899528,1006.5867246139192,55.624609277780756,0,1,1
36,1676679833.7859197,29.024921875,192740,7.0925581788579874,1006.5861034427868,55.629808655946874,0,1,1
37,1676679834.977364,28.968671875,191960,7.105403382536049,1006.576318115959,55.711714953491054,0,1,1
38,1676679836.16881,28.9165234375,193527,7.132523411788458,1006.5696374508989,55.76763461501236,0,1,1
39,1676679837.3601954,28.864765625,195006,7.154924830505211,1006.567128235714,55.78863776083843,0,1,1
40,1676679838.5511177,28.810859375,196507,7.172545908472393,1006.5682106078315,55.77957786330581,0,1,1
41,1676679839.7419763,28.759296875,198150,7.185493639739508,1006.5695419735978,55.76843379786092,0,1,1
42,1676679840.9328382,28.6868359375,199821,7.18375867274567,1006.5741330899112,55.730004404463955,0,1,1
43,1676679842.1214805,28.5977734375,203622,7.134390862599763,1006.5765353471638,55.709896652226384,0,1,1
44,1676679843.3128583,28.4954296875,205387,7.061169958115617,1006.5768093897042,55.70760282063719,0,1,1
45,1676679844.5037022,28.3692578125,208878,6.968646612639084,1006.5772852772465,55.703619477222325,0,1,1
46,1676679845.694667,28.2356640625,210334,6.890227040210862,1006.5797958717019,55.68260495805228,0,1,1
47,1676679846.8805285,28.090546875,213446,6.8257733220188195,1006.5829697632819,55.65603847982314,0,1,1
48,1676679848.0662236,27.92609375,214828,6.79855377483674,1006.5847006325732,55.64155058397682,0,1,1
49,1676679849.2518694,27.7477734375,216511,6.775752081861244,1006.5796798123508,55.683576412885074,0,1,1
50,1676679850.4373705,27.5512890625,216369,6.818253698511926,1006.5768183119434,55.70752813839107,0,1,1
51,1676679851.6283095,27.3712109375,218363,6.8892601199980055,1006.5757198949563,55.71672227444599,0,1,1
52,1676679852.819809,27.2247265625,219084,6.9328515195559115,1006.5707931062767,55.75796132641509,0,1,1
53,1676679854.0112145,27.0997265625,219519,6.962839873707969,1006.5689204582756,55.773636128894886,0,1,1
54,1676679855.201991,26.9739453125,221867,6.992799152321516,1006.5639372157742,55.81534794942219,0,1,1
55,1676679856.3927414,26.853046875,222164,7.022860269253168,1006.5544610415367,55.894667945933726,0,1,1
56,1676679857.5837545,26.7321484375,222911,7.029448438741885,1006.5466909240486,55.95970790318545,0,1,1
57,1676679858.7749867,26.606953125,219809,7.068773960258766,1006.5548362077504,55.89152761831221,0,1,1
58,1676679859.9659286,26.4794140625,222164,7.103341599508008,1006.5502515343987,55.92990367726456,0,1,1
59,1676679861.157339,26.3489453125,227029,7.114371871001526,1006.5443542272918,55.97926735968506,0,1,1
60,1676679862.3488224,26.2262890625,225486,7.116200106916346,1006.5299200918323,56.100089947473336,0,1,1
61,1676679863.539633,26.1048046875,225486,7.132120206999184,1006.5173347996139,56.20543772558141,0,1,1
62,1676679864.7312045,25.98703125,228593,7.152807809231887,1006.5054416527465,56.30499273881582,0,1,1
63,1676679865.9219835,25.8673046875,227965,7.178128835407483,1006.4832428363569,56.49081687686766,0,1,1
64,1676679867.1133437,25.7602734375,226873,7.292839220005692,1006.4658070994965,56.63677206523362,0,1,1
65,1676679868.3047264,25.67296875,227808,7.422182356430934,1006.4469677328806,56.794479390607115,0,1,1
66,1676679869.496144,25.5876171875,227808,7.528176397168244,1006.4259909762444,56.9700819592559,0,1,1
67,1676679870.6869745,25.489765625,228278,7.5962964750316395,1006.4040045981103,57.15413954588888,0,1,1
68,1676679871.8777986,25.3758984375,228278,7.692260574138716,1006.3858433611096,57.30617765869391,0,1,1
69,1676679873.0688252,25.256171875,230019,7.750447156147391,1006.3633607423066,57.494395610088,0,1,1
70,1676679874.2597024,25.1407421875,231141,7.789907729449385,1006.344307938083,57.653902815712854,0,1,1
71,1676679875.4506068,25.0235546875,232926,7.801072583164191,1006.3099899896495,57.94121367695541,0,1,1
72,1676679876.6419678,24.896015625,235571,7.793151996564735,1006.288695722449,58.11949388924134,0,1,1
73,1676679877.8335936,24.7544140625,237086,7.780183977501521,1006.2567160694296,58.38724020213176,0,1,1
74,1676679879.02523,24.6048046875,236748,7.757631325584721,1006.2327310878296,58.58805648313807,0,1,1
75,1676679880.21631,24.4583203125,238621,7.7680599419283105,1006.2084757036927,58.79114067384366,0,1,1
76,1676679881.4078407,24.3128125,239137,7.759725519909823,1006.1927761592221,58.92259109824372,0,1,1
77,1676679882.5993428,24.1669140625,239828,7.765470826432573,1006.17987299195,59.03062903127021,0,1,1
78,1676679883.790784,24.021796875,243168,7.855725400834739,1006.1751994490052,59.069760779309526,0,1,1
79,1676679884.9813495,23.872578125,242990,7.941191264545754,1006.1654913764379,59.15104730057451,0,1,1
80,1676679886.1729453,23.7645703125,244062,7.933747818164855,1006.1579330961529,59.21433386701256,0,1,1
81,1676679887.3645177,23.6846875,242103,7.889470469954047,1006.1681446714921,59.128830971268066,0,1,1
82,1676679888.5554214,23.6247265625,243704,8.03823173746238,1006.1739437170916,59.080275094180095,0,1,1
83,1676679889.7466357,23.581171875,242990,7.999527212626961,1006.1907129407366,58.93986630545709,0,1,1
84,1676679890.9375873,23.5641796875,244602,7.994395853003594,1006.2069166376048,58.80419447507387,0,1,1
85,1676679892.1294353,23.566328125,244242,8.083732406798804,1006.2051511201827,58.818976878784895,0,1,1
86,1676679893.3204699,23.6325390625,246418,7.64913046934399,1006.4365639655139,56.88157200148201,0,1,1
87,1676679894.5113325,23.694453125,246053,8.030622830649236,1006.4920500306996,56.41709231045864,0,1,1
88,1676679895.70239,23.737421875,247153,8.078746973296925,1006.5059945226986,56.3003647604442,0,1,1
89,1676679896.893241,23.82921875,248262,8.029384365089129,1006.5469640486391,55.95742170027253,0,1,1
90,1676679898.0843492,23.91984375,242812,8.083464597534553,1006.5085386211822,56.27906858031558,0,1,1
91,1676679899.2751026,24.153046875,242457,8.188449703974905,1006.7700250780467,54.090446003587004,0,1,1
92,1676679900.4666135,24.3165234375,236411,8.353227353210697,1006.8628820217325,53.31335090051491,0,1,1
93,1676679901.6574602,24.55109375,231949,8.600906298971049,1007.0841936934969,51.46148622813828,0,1,1
94,1676679902.8484197,24.61515625,232762,9.03970660816989,1006.9192756279268,52.84143610780644,0,1,1
95,1676679904.039408,24.6692578125,236242,9.379921328997769,1006.8032427078667,53.81244981407224,0,1,1
96,1676679905.2303934,24.7149609375,235906,9.142651211610373,1006.7087093003341,54.60361327804293,0,1,1
97,1676679906.4212797,24.7524609375,229066,9.377634284849862,1006.6377702475156,55.19735175754164,0,1,1
98,1676679907.6123598,24.7473828125,233581,9.698167599400898,1006.5818866100961,55.665104807583425,0,1,1
99,1676679908.8031964,24.7282421875,239137,9.55386730942089,1006.5259508294058,56.13331536019835,0,1,1
100,1676679909.9962277,24.7159375,237086,9.496068468575768,1006.4970430057516,56.37529660763454,0,1,1
101,1676679911.1874413,24.7180859375,237426,9.491349674676753,1006.4811642885315,56.50821636893964,0,1,1
102,1676679912.3789287,24.7329296875,238278,9.405724551217533,1006.4789677398036,56.526603676387616,0,1,1
103,1676679913.5699673,24.7579296875,240873,9.368240801495975,1006.4757296760229,56.55370956466753,0,1,1
104,1676679914.760908,24.7846875,240698,9.144690448733956,1006.4647829753244,56.64534510964277,0,1,1
105,1676679915.9524553,24.8219921875,234738,9.126709487530684,1006.4657656353827,56.63711916527918,0,1,1
106,1676679917.143525,24.8809765625,228278,9.639971488415362,1006.4756970115163,56.55398300018389,0,1,1
107,1676679918.334615,24.9434765625,229542,10.151321267238044,1006.4825390131982,56.496708566512794,0,1,1
108,1676679919.526063,25.0091015625,231302,10.32224370469056,1006.4803603188216,56.514946394898175,0,1,1
109,1676679920.7169232,25.0753125,235404,10.179684036988501,1006.4773549405478,56.54010443821174,0,1,1
110,1676679921.908397,25.141328125,237426,9.916961005329739,1006.4898834053816,56.435228970016226,0,1,1
111,1676679923.099246,25.21359375,239137,9.64062521729419,1006.4914299495871,56.42228296014881,0,1,1
112,1676679924.2901316,25.2825390625,241574,9.393552123940953,1006.4892986926533,56.440123562240515,0,1,1
113,1676679925.480847,25.3442578125,242103,9.20410284915029,1006.4859380414276,56.46825539973968,0,1,1
114,1676679926.6724405,25.4020703125,243704,8.96238040366443,1006.4885361610349,56.446506668284734,0,1,1
115,1676679927.8634121,25.4626171875,244242,8.825944170870896,1006.484994226245,56.47615604146876,0,1,1
116,1676679929.0543056,25.5122265625,245507,8.660813143152197,1006.4882955971408,56.44852041490131,0,1,1
117,1676679930.2448502,25.5567578125,246969,8.5005195805698,1006.4921255357658,56.416460263727735,0,1,1
118,1676679931.4358537,25.6032421875,246785,8.354720525222568,1006.4797193646733,56.52031182161742,0,1,1
119,1676679932.6268687,25.6680859375,245689,8.233264246463666,1006.4760699352853,56.55086124514185,0,1,1
120,1676679933.8184342,25.738984375,248077,8.126267619686713,1006.4734504569059,56.57278898991898,0,1,1
121,1676679935.009442,25.8051953125,249945,8.023951012881724,1006.4737555589387,56.570234967794846,0,1,1
122,1676679936.2008393,25.8606640625,250322,7.940322331458585,1006.4759440196596,56.55191528817119,0,1,1
123,1676679937.3923433,25.894453125,256714,7.851464500371126,1006.4692502160167,56.60794944919692,0,1,1
124,1676679938.5833502,25.9503125,250134,7.76794557401487,1006.4667557960535,56.62883043913357,0,1,1
125,1676679939.7742603,26.0102734375,254938,7.717578055700043,1006.4709349161021,56.59384671312969,0,1,1
126,1676679940.9655075,26.0649609375,249757,7.662374214294896,1006.4735652613665,56.571827956810594,0,1,1
127,1676679942.156482,26.0925,257111,7.611222171617981,1006.472544626571,56.58037173796909,0,1,1
128,1676679943.3474777,26.1094921875,259119,7.550410656800267,1006.4755209191532,56.555457074481566,0,1,1
129,1676679944.5383003,26.1274609375,257511,7.50377448592602,1006.4747891557557,56.561582689434694,0,1,1
130,1676679945.7294781,26.1508984375,255724,7.461994177419503,1006.4829717762118,56.493085915546885,0,1,1
131,1676679946.9205358,26.189375,256912,7.425294902549963,1006.485639753695,56.470752354588,0,1,1
132,1676679948.1120243,26.23234375,256515,7.402819057096748,1006.4850246549717,56.475901323635966,0,1,1
133,1676679949.303541,26.27765625,257311,7.385102637871216,1006.4882217347622,56.449138712731184,0,1,1
134,1676679950.4947467,26.3282421875,259119,7.353404664966959,1006.4805697974876,56.51319284973269,0,1,1
135,1676679951.6860454,26.365546875,259728,7.316688486402886,1006.4724626658734,56.58105783506787,0,1,1
136,1676679952.8775058,26.38,259525,7.28413263728435,1006.4659799306845,56.635325279017984,0,1,1
137,1676679954.0684762,26.3969921875,254938,7.430341164788833,1006.4689354902849,56.61058404127498,0,1,1
138,1676679955.2598329,26.40734375,251080,7.722864555302447,1006.4681355322004,56.61728055180769,0,1,1
139,1676679956.4517474,26.416328125,246418,8.096780365953697,1006.4704083033408,56.59825502140095,0,1,1
140,1676679957.6426463,26.414375,242634,8.471836682748467,1006.474293702956,56.565730142811546,0,1,1
141,1676679958.83383,26.4190625,242990,8.805532125883836,1006.4801662643597,56.51657082436563,0,1,1
142,1676679960.0248134,26.4071484375,241223,9.106344481587588,1006.4748857243285,56.56077431059579,0,1,1
143,1676679961.2155213,26.3919140625,236917,9.398335336306223,1006.4694944438885,56.605905000312376,0,1,1
144,1676679962.406681,26.3708203125,243346,9.623581013116178,1006.4704556671167,56.59785853620462,0,1,1
145,1676679963.5976658,26.3462109375,238107,9.786525600643033,1006.4780533532793,56.53425801474581,0,1,1
146,1676679964.7885454,26.322578125,243883,9.882195790211842,1006.4784050640042,56.53131384022957,0,1,1
147,1676679965.9800456,26.2925,239655,9.958429912349107,1006.4753154117409,56.55717738328192,0,1,1
148,1676679967.1711564,26.2591015625,246602,9.947709226800958,1006.4685762851349,56.613590974628664,0,1,1
149,1676679968.362623,26.2290234375,248821,9.816558698523398,1006.4637122069852,56.65430862452331,0,1,1
150,1676679969.5534182,26.2221875,247891,9.657452303766558,1006.4631683393953,56.658861400527236,0,1,1
151,1676679970.7447276,26.233515625,250890,9.523178502439839,1006.4657351976715,56.63737396227129,0,1,1
152,1676679971.9361036,26.2628125,247891,9.399217022440206,1006.4604916308781,56.68126845387187,0,1,1
153,1676679973.1272068,26.303828125,248821,9.323690978323242,1006.4549102198056,56.72799128165141,0,1,1
154,1676679974.317976,26.348359375,248448,9.262690878717121,1006.444448891458,56.81556519273016,0,1,1
155,1676679975.5093427,26.39171875,250701,9.172932025710884,1006.4479710901863,56.78608006722977,0,1,1
156,1676679976.7000508,26.4450390625,251080,9.083525022350383,1006.4500466829344,56.76870484806429,0,1,1
157,1676679977.891592,26.5008984375,251270,8.994245610567681,1006.4527127844235,56.74638639981157,0,1,1
158,1676679979.0826983,26.5571484375,251842,8.914589670239257,1006.438326494605,56.86681736611934,0,1,1
159,1676679980.2729442,26.611640625,255724,8.811039227067177,1006.4422717026184,56.83379097676792,0,1,1
160,1676679981.46434,26.65578125,254352,8.71681545847238,1006.4470169096442,56.79406772100647,0,1,1
161,1676679982.6553435,26.7003125,253769,8.627436799105299,1006.4506225129281,56.76388446039873,0,1,1
162,1676679983.846334,26.7407421875,256714,8.547531907151237,1006.4546099301973,56.730505056869774,0,1,1
163,1676679985.0374277,26.7846875,258312,8.448724349980592,1006.4607813784728,56.67884293909923,0,1,1
164,1676679986.2282794,26.8395703125,259525,8.29797519515782,1006.4600056570104,56.68533660554179,0,1,1
165,1676679987.4197762,26.901484375,259525,8.20459003865508,1006.4565212418142,56.714505153659964,0,1,1
166,1676679988.611289,26.96203125,258112,8.13021506145104,1006.4755533662568,56.55518545881738,0,1,1
167,1676679989.8020854,27.0184765625,259119,8.074745788378433,1006.4772797739789,56.540733658880306,0,1,1
168,1676679990.9934464,27.0690625,259931,8.019136271799168,1006.4818327016267,56.50262108996527,0,1,1
169,1676679992.1849105,27.117890625,260544,7.935047178747198,1006.4799741946094,56.5181786400726,0,1,1
170,1676679993.3763723,27.158125,261365,7.864998218005969,1006.4782646927541,56.53248888947788,0,1,1
171,1676679994.5672572,27.190546875,264069,7.7663765492689825,1006.4762117712323,56.54967393280458,0,1,1
172,1676679995.7583551,27.215546875,265974,7.672377772913558,1006.4744548943911,56.56438080327241,0,1,1
173,1676679996.9496722,27.2321484375,266615,7.592422798241148,1006.4696372149147,56.6047098540821,0,1,1
174,1676679998.1411943,27.24640625,266187,7.517189754452971,1006.4680797865886,56.61774720276436,0,1,1
175,1676679999.3320196,27.2477734375,267691,7.446411301623443,1006.4756141196834,56.55467689010476,0,1,1
176,1676680000.5228767,27.24484375,268340,7.385010774158569,1006.4726134910791,56.57979526975881,0,1,1
177,1676680001.713738,27.233515625,270087,7.318734217532938,1006.4771714723009,56.54164025420577,0,1,1
178,1676680002.9052784,27.2227734375,267475,7.2949149313977735,1006.4720665436254,56.58437379486446,0,1,1
179,1676680004.096845,27.212421875,268340,7.275822595987954,1006.4746746648002,56.56254109723357,0,1,1
180,1676680005.287655,27.2094921875,269648,7.261622278696639,1006.4769817416667,56.54322849299329,0,1,1
181,1676680006.4790285,27.2180859375,268993,7.2053267951638915,1006.4732810336501,56.574207239487144,0,1,1
182,1676680007.6698654,27.2344921875,269648,7.19159582010076,1006.4699145111408,56.60238858840613,0,1,1
183,1676680008.8608487,27.258125,271413,7.178036671855819,1006.4712347611818,56.59133669209745,0,1,1
184,1676680010.0523503,27.2719921875,273201,7.150130250419099,1006.4743481737014,56.565274166141975,0,1,1
185,1676680011.2437193,27.2903515625,272081,7.108224146006792,1006.4741573008073,56.5668719704399,0,1,1
186,1676680012.4344463,27.3200390625,270307,7.0760000866120105,1006.4711721499247,56.59186081461138,0,1,1
187,1676680013.6250875,27.353046875,271413,7.04385853778035,1006.470048684318,56.601265415745154,0,1,1
188,1676680014.8158028,27.3817578125,270087,7.0163219855630405,1006.4672347587854,56.62482100037126,0,1,1
189,1676680016.006919,27.410859375,270970,6.974701094596092,1006.4615129869654,56.67271855184881,0,1,1
190,1676680017.1984272,27.4395703125,272976,6.961267734162949,1006.4640008753792,56.65189215014405,0,1,1
191,1676680018.3895986,27.4696484375,274330,6.938469859675625,1006.4740208508749,56.56801419819585,0,1,1
192,1676680019.5810044,27.4969921875,275240,6.915610809634549,1006.4795869623615,56.52142016161724,0,1,1
